Sensor Model:   RX-102A-AA-0.05D-0.05B
Serial Number:  UMEN102
Data Format:    4      (Log Ohms/Kelvin)
SetPoint Limit: 40.      (Kelvin)
Temperature coefficient:  1 (Negative)
Number of Breakpoints:   104

No.   Units      Temperature (K)

  1  3.02081        40.000
  2  3.02133        38.800
  3  3.02184        37.700
  4  3.02237        36.600
  5  3.02294        35.500
  6  3.02353        34.400
  7  3.02411        33.400
  8  3.02472        32.400
  9  3.02537        31.400
 10  3.02605        30.400
 11  3.02679        29.400
 12  3.02749        28.500
 13  3.02823        27.600
 14  3.02903        26.700
 15  3.02988        25.800
 16  3.03078        24.900
 17  3.03176        24.000
 18  3.03280        23.100
 19  3.03393        22.200
 20  3.03500        21.400
 21  3.03615        20.600
 22  3.03716        19.950
 23  3.03797        19.450
 24  3.03882        18.950
 25  3.03971        18.450
 26  3.04065        17.950
 27  3.04164        17.450
 28  3.04258        17.000
 29  3.04357        16.550
 30  3.04460        16.100
 31  3.04569        15.650
 32  3.04685        15.200
 33  3.04807        14.750
 34  3.04936        14.300
 35  3.05058        13.900
 36  3.05186        13.500
 37  3.05322        13.100
 38  3.05466        12.700
 39  3.05618        12.300
 40  3.05780        11.900
 41  3.05952        11.500
 42  3.06135        11.100
 43  3.06330        10.700
 44  3.06537        10.300
 45  3.06760         9.900
 46  3.06968         9.550
 47  3.07190         9.200
 48  3.07428         8.850
 49  3.07685         8.500
 50  3.07922         8.200
 51  3.08175         7.900
 52  3.08447         7.600
 53  3.08786         7.250
 54  3.09150         6.900
 55  3.09485         6.600
 56  3.09791         6.350
 57  3.10191         6.050
 58  3.10638         5.740
 59  3.11078         5.460
 60  3.11558         5.180
 61  3.12085         4.900
 62  3.12622         4.640
 63  3.13211         4.380
 64  3.13861         4.120
 65  3.14411         3.920
 66  3.14913         3.750
 67  3.15454         3.580
 68  3.16002         3.420
 69  3.16593         3.260
 70  3.17191         3.110
 71  3.17838         2.960
 72  3.18540         2.810
 73  3.19253         2.670
 74  3.20027         2.530
 75  3.20875         2.390
 76  3.21736         2.260
 77  3.22675         2.130
 78  3.23707         2.000
 79  3.24842         1.870
 80  3.26000         1.750
 81  3.27169         1.640
 82  3.28462         1.530
 83  3.29779         1.430
 84  3.31256         1.330
 85  3.32938         1.230
 86  3.34846         1.130
 87  3.37196         1.020
 88  3.39220         0.935
 89  3.41621         0.850
 90  3.44351         0.765
 91  3.47148         0.690
 92  3.50420         0.615
 93  3.54057         0.545
 94  3.58493         0.474
 95  3.63222         0.412
 96  3.68615         0.354
 97  3.75456         0.295
 98  3.82865         0.245
 99  3.91348         0.201
100  4.01514         0.162
101  4.14432         0.127
102  4.34126         0.091
103  4.54568         0.066
104  4.79803         0.050
